"Force factor Bl (X)"					
"-Xprot < X < Xprot"		"Xp- < X < Xp+"		"Bl (-X)"	
"<< coil out                                    X [mm]                                     coil in >>"	"Bl [N/A]"	"<< coil out                                    X [mm]                                     coil in >>"	"Bl [N/A]"	"<< coil out                                    X [mm]                                     coil in >>"	"Bl [N/A]"
-2.7571	6.13927	-2.25236	6.29044	2.7571	6.13927
-2.7014	6.15935	-2.20356	6.30165	2.7014	6.15935
-2.6457	6.17854	-2.15477	6.31232	2.6457	6.17854
-2.59	6.19686	-2.10598	6.32246	2.59	6.19686
-2.53431	6.21433	-2.05719	6.3321	2.53431	6.21433
-2.47861	6.23097	-2.0084	6.34124	2.47861	6.23097
-2.42291	6.2468	-1.95961	6.3499	2.42291	6.2468
-2.36721	6.26183	-1.91082	6.3581	2.36721	6.26183
-2.31151	6.2761	-1.86202	6.36585	2.31151	6.2761
-2.25581	6.28962	-1.81323	6.37317	2.25581	6.28962
-2.20011	6.30242	-1.76444	6.38007	2.20011	6.30242
-2.14441	6.31452	-1.71565	6.38656	2.14441	6.31452
-2.08871	6.32593	-1.66686	6.39267	2.08871	6.32593
-2.03301	6.33669	-1.61807	6.3984	2.03301	6.33669
-1.97732	6.34681	-1.56928	6.40378	1.97732	6.34681
-1.92162	6.35633	-1.52048	6.4088	1.92162	6.35633
-1.86592	6.36525	-1.47169	6.4135	1.86592	6.36525
-1.81022	6.37361	-1.4229	6.41788	1.81022	6.37361
-1.75452	6.38142	-1.37411	6.42195	1.75452	6.38142
-1.69882	6.38871	-1.32532	6.42573	1.69882	6.38871
-1.64312	6.39551	-1.27653	6.42923	1.64312	6.39551
-1.58742	6.40182	-1.22774	6.43247	1.58742	6.40182
-1.53172	6.40768	-1.17894	6.43545	1.53172	6.40768
-1.47602	6.41309	-1.13015	6.43818	1.47602	6.41309
-1.42033	6.4181	-1.08136	6.44069	1.42033	6.4181
-1.36463	6.42271	-1.03257	6.44297	1.36463	6.42271
-1.30893	6.42694	-0.983778	6.44505	1.30893	6.42694
-1.25323	6.43081	-0.934987	6.44693	1.25323	6.43081
-1.19753	6.43434	-0.886195	6.44861	1.19753	6.43434
-1.14183	6.43755	-0.837404	6.45012	1.14183	6.43755
-1.08613	6.44045	-0.788612	6.45145	1.08613	6.44045
-1.03043	6.44307	-0.739821	6.45262	1.03043	6.44307
-0.974733	6.44541	-0.691029	6.45364	0.974733	6.44541
-0.919034	6.4475	-0.642238	6.45451	0.919034	6.4475
-0.863335	6.44934	-0.593447	6.45524	0.863335	6.44934
-0.807636	6.45095	-0.544655	6.45584	0.807636	6.45095
-0.751937	6.45235	-0.495864	6.45631	0.751937	6.45235
-0.696238	6.45354	-0.447072	6.45666	0.696238	6.45354
-0.640539	6.45454	-0.398281	6.45689	0.640539	6.45454
-0.58484	6.45535	-0.349489	6.45702	0.58484	6.45535
-0.529141	6.456	-0.300698	6.45704	0.529141	6.456
-0.473442	6.45648	-0.251906	6.45696	0.473442	6.45648
-0.417743	6.45681	-0.203115	6.45679	0.417743	6.45681
-0.362044	6.457	-0.154324	6.45651	0.362044	6.457
-0.306345	6.45705	-0.105532	6.45615	0.306345	6.45705
-0.250646	6.45696	-0.0567406	6.4557	0.250646	6.45696
-0.194947	6.45675	-0.00794915	6.45517	0.194947	6.45675
-0.139248	6.45641	0.0408423	6.45454	0.139248	6.45641
-0.0835485	6.45596	0.0896338	6.45384	0.0835485	6.45596
-0.0278495	6.45539	0.138425	6.45305	0.0278495	6.45539
0.0278495	6.45472	0.187217	6.45217	-0.0278495	6.45472
0.0835485	6.45393	0.236008	6.45121	-0.0835485	6.45393
0.139248	6.45303	0.2848	6.45017	-0.139248	6.45303
0.194947	6.45203	0.333591	6.44904	-0.194947	6.45203
0.250646	6.45091	0.382382	6.44783	-0.250646	6.45091
0.306345	6.44968	0.431174	6.44652	-0.306345	6.44968
0.362044	6.44834	0.479965	6.44512	-0.362044	6.44834
0.417743	6.44689	0.528757	6.44362	-0.417743	6.44689
0.473442	6.44531	0.577548	6.44203	-0.473442	6.44531
0.529141	6.44361	0.62634	6.44033	-0.529141	6.44361
0.58484	6.44178	0.675131	6.43853	-0.58484	6.44178
0.640539	6.43982	0.723923	6.43661	-0.640539	6.43982
0.696238	6.43771	0.772714	6.43458	-0.696238	6.43771
0.751937	6.43546	0.821506	6.43242	-0.751937	6.43546
0.807636	6.43305	0.870297	6.43013	-0.807636	6.43305
0.863335	6.43047	0.919089	6.42771	-0.863335	6.43047
0.919034	6.42771	0.96788	6.42514	-0.919034	6.42771
0.974733	6.42477	1.01667	6.42243	-0.974733	6.42477
1.03043	6.42163	1.06546	6.41955	-1.03043	6.42163
1.08613	6.41829	1.11425	6.41651	-1.08613	6.41829
1.14183	6.41472	1.16305	6.4133	-1.14183	6.41472
1.19753	6.41091	1.21184	6.4099	-1.19753	6.41091
1.25323	6.40686	1.26063	6.4063	-1.25323	6.40686
1.30893	6.40255	1.30942	6.40251	-1.30893	6.40255
1.36463	6.39795	1.35821	6.3985	-1.36463	6.39795
1.42033	6.39307	1.407	6.39426	-1.42033	6.39307
1.47602	6.38787	1.45579	6.3898	-1.47602	6.38787
1.53172	6.38235	1.50459	6.38508	-1.53172	6.38235
1.58742	6.37648	1.55338	6.38011	-1.58742	6.37648
1.64312	6.37026	1.60217	6.37487	-1.64312	6.37026
1.69882	6.36365	1.65096	6.36935	-1.69882	6.36365
1.75452	6.35664	1.69975	6.36354	-1.75452	6.35664
1.81022	6.34922	1.74854	6.35742	-1.81022	6.34922
1.86592	6.34136	1.79733	6.35098	-1.86592	6.34136
1.92162	6.33304	1.84613	6.3442	-1.92162	6.33304
1.97732	6.32424	1.89492	6.33709	-1.97732	6.32424
2.03301	6.31495	1.94371	6.32961	-2.03301	6.31495
2.08871	6.30513	1.9925	6.32176	-2.08871	6.30513
2.14441	6.29478	2.04129	6.31352	-2.14441	6.29478
2.20011	6.28386	2.09008	6.30488	-2.20011	6.28386
2.25581	6.27236	2.13887	6.29583	-2.25581	6.27236
2.31151	6.26026	2.18767	6.28635	-2.31151	6.26026
2.36721	6.24753	2.23646	6.27642	-2.36721	6.24753
2.42291	6.23415	2.28525	6.26604	-2.42291	6.23415
2.47861	6.22011	2.33404	6.25518	-2.47861	6.22011
2.53431	6.20537	2.38283	6.24384	-2.53431	6.20537
2.59	6.18993	2.43162	6.232	-2.59	6.18993
2.6457	6.17376	2.48042	6.21964	-2.6457	6.17376
2.7014	6.15683	2.52921	6.20675	-2.7014	6.15683
2.7571	6.13914	2.578	6.19332	-2.7571	6.13914
